,[a] 0.46296,[b] 0.92593,[c] 1.38889,[d] 1.85184,[e] 2.3148,[f] 3.19442,--,--,--,--,--,--,--,--,--,--,--,--,--,--
0.0048,5.97E-05,5.99E-05,5.88E-05,5.67E-05,5.34E-05,4.72E-05,2.16E-04,3.82E-04,4.13E-04,4.19E-04,3.76E-04,2.20E-04,-0.003176219,-0.006019849,-0.006485473,-0.00670997,-0.003494932,-0.006599446,-0.007170719,-0.007375871
0.0288,6.48E-05,6.91E-05,6.87E-05,6.68E-05,6.25E-05,5.25E-05,1.40E-04,2.37E-04,2.57E-04,2.58E-04,2.33E-04,1.45E-04,-0.003147117,-0.006061422,-0.006622665,-0.006934467,-0.002382809,-0.004592466,-0.004970948,-0.00512248
0.0528,6.64E-05,7.13E-05,7.11E-05,6.91E-05,6.47E-05,5.42E-05,6.49E-05,9.10E-05,9.48E-05,8.58E-05,8.52E-05,6.47E-05,-0.001596424,-0.003201163,-0.003625213,-0.003621056,-0.001522072,-0.003004939,-0.003236767,-0.003338951
0.0768,6.80E-05,7.34E-05,7.32E-05,7.09E-05,6.66E-05,5.56E-05,6.31E-05,8.38E-05,8.30E-05,8.38E-05,7.70E-05,5.45E-05,-8.31E-05,-4.41E-04,-2.58E-04,-1.16E-04,-8.84E-04,-0.001792192,-0.001917703,-0.00197551
0.1008,6.94E-05,7.53E-05,7.51E-05,7.31E-05,6.84E-05,5.68E-05,6.09E-05,6.98E-05,8.24E-05,8.02E-05,7.64E-05,4.65E-05,-2.41E-04,-5.03E-04,-2.12E-04,-1.95E-04,-4.38E-04,-9.10E-04,-9.63E-04,-9.82E-04
0.1248,7.09E-05,7.68E-05,7.72E-05,7.47E-05,7.02E-05,5.78E-05,5.15E-05,5.97E-05,7.28E-05,7.44E-05,7.06E-05,4.45E-05,-4.53E-04,-2.20E-04,-5.28E-04,-3.91E-04,-1.56E-04,-3.12E-04,-3.23E-04,-3.10E-04
0.1488,7.19E-05,7.82E-05,7.86E-05,7.67E-05,7.17E-05,5.89E-05,3.91E-05,5.93E-05,5.71E-05,6.15E-05,5.03E-05,4.39E-05,-2.87E-04,-2.91E-05,-2.29E-04,-4.95E-04,-8.99E-06,4.41E-05,5.35E-05,9.20E-05
0.1728,7.27E-05,7.96E-05,7.99E-05,7.77E-05,7.26E-05,5.99E-05,3.77E-05,5.83E-05,6.19E-05,5.07E-05,4.73E-05,3.97E-05,1.95E-04,-9.98E-05,-1.08E-04,-1.95E-04,3.28E-05,2.04E-04,2.17E-04,2.73E-04
0.1968,7.37E-05,8.10E-05,8.15E-05,7.91E-05,7.40E-05,6.08E-05,4.85E-05,5.45E-05,5.19E-05,5.21E-05,6.09E-05,3.89E-05,1.41E-04,-2.29E-04,-3.53E-04,6.65E-05,-1.57E-06,2.13E-04,2.17E-04,2.82E-04
0.2208,7.51E-05,8.23E-05,8.24E-05,8.02E-05,7.56E-05,6.18E-05,4.45E-05,4.73E-05,4.49E-05,5.39E-05,5.01E-05,3.43E-05,-4.82E-04,-3.16E-04,4.16E-06,-1.21E-04,9.01E-06,2.34E-04,2.89E-04,3.00E-04
0.2448,7.58E-05,8.33E-05,8.37E-05,8.17E-05,7.64E-05,6.25E-05,2.53E-05,3.93E-05,5.21E-05,4.63E-05,3.07E-05,2.95E-05,-4.45E-04,-2.74E-04,-8.31E-05,-3.78E-04,-4.39E-05,1.63E-05,3.19E-05,1.11E-05
0.2688,7.63E-05,8.41E-05,8.49E-05,8.24E-05,7.70E-05,6.32E-05,2.31E-05,3.41E-05,4.09E-05,3.57E-05,3.15E-05,2.61E-05,1.66E-05,-9.15E-05,-4.16E-04,-2.70E-04,-8.84E-05,-1.42E-04,-1.63E-04,-1.64E-04
0.2928,7.69E-05,8.49E-05,8.57E-05,8.34E-05,7.79E-05,6.37E-05,2.61E-05,3.49E-05,3.21E-05,3.33E-05,4.85E-05,2.27E-05,-4.16E-05,-4.16E-05,-9.98E-05,1.04E-04,-7.09E-05,-1.34E-04,-1.11E-04,-1.01E-04
0.3168,7.75E-05,8.58E-05,8.64E-05,8.40E-05,7.94E-05,6.43E-05,2.12E-05,3.21E-05,3.61E-05,4.07E-05,4.39E-05,2.31E-05,-2.12E-04,-1.83E-04,-4.16E-05,9.56E-05,-8.65E-05,-1.32E-04,-9.95E-05,-1.13E-04
0.3408,7.79E-05,8.64E-05,8.74E-05,8.54E-05,8.00E-05,6.48E-05,1.60E-05,2.61E-05,3.01E-05,3.79E-05,2.23E-05,2.14E-05,-2.74E-04,-1.12E-04,-2.58E-04,-3.08E-04,-1.18E-04,-1.28E-04,-1.01E-04,-1.32E-04
0.3648,7.83E-05,8.71E-05,8.79E-05,8.58E-05,8.04E-05,6.53E-05,7.98E-06,2.67E-05,2.37E-05,2.59E-05,1.98E-05,2.18E-05,-4.99E-05,-1.21E-04,9.15E-05,-3.12E-04,-1.08E-04,-1.00E-04,-9.57E-05,-1.16E-04
0.3888,7.83E-05,8.77E-05,8.85E-05,8.66E-05,8.10E-05,6.59E-05,1.36E-05,2.04E-05,3.45E-05,2.29E-05,3.17E-05,2.39E-05,5.24E-04,-2.04E-04,1.66E-05,-1.95E-04,-7.63E-05,-5.21E-05,-9.98E-05,-8.69E-05
0.4128,7.90E-05,8.80E-05,8.95E-05,8.69E-05,8.20E-05,6.65E-05,3.31E-05,1.70E-05,2.45E-05,1.66E-05,3.23E-05,2.02E-05,2.41E-04,7.90E-05,-3.49E-04,8.31E-05,-6.19E-05,-2.72E-05,-7.44E-05,-5.73E-05
0.4368,7.99E-05,8.85E-05,8.97E-05,8.74E-05,8.25E-05,6.68E-05,2.51E-05,2.41E-05,1.78E-05,2.69E-05,1.80E-05,1.64E-05,-5.16E-04,8.31E-06,1.66E-04,2.95E-04,-4.95E-05,-5.80E-05,-5.75E-05,-4.43E-05
0.4608,8.02E-05,8.92E-05,9.04E-05,8.82E-05,8.28E-05,6.72E-05,8.38E-06,1.74E-05,3.25E-05,3.07E-05,1.50E-05,1.66E-05,-4.66E-04,-6.24E-05,1.25E-05,-2.74E-04,-2.17E-05,-8.82E-05,-7.53E-05,-5.37E-05
0.4848,8.03E-05,8.94E-05,9.13E-05,8.89E-05,8.33E-05,6.76E-05,2.79E-06,2.12E-05,1.84E-05,1.38E-05,2.14E-05,1.06E-05,-1.16E-04,8.31E-06,-3.70E-04,-4.95E-04,1.28E-05,-7.79E-05,-6.57E-05,-8.15E-05
0.5088,8.03E-05,9.02E-05,9.13E-05,8.89E-05,8.39E-05,6.77E-05,2.79E-06,1.78E-05,1.48E-05,6.98E-06,1.54E-05,8.38E-06,1.79E-04,-1.37E-04,8.31E-05,2.99E-04,-5.61E-06,-5.48E-05,-5.32E-05,-3.48E-05
0.5328,8.04E-05,9.02E-05,9.20E-05,8.92E-05,8.40E-05,6.80E-05,1.14E-05,1.46E-05,2.23E-05,2.81E-05,1.24E-05,1.26E-05,1.79E-04,8.31E-06,-1.50E-04,3.70E-04,-5.99E-05,-5.81E-05,-6.69E-05,-3.23E-06
0.5568,8.09E-05,9.09E-05,9.23E-05,9.02E-05,8.44E-05,6.84E-05,1.14E-05,1.82E-05,7.58E-06,2.47E-05,2.20E-05,1.06E-05,-2.37E-04,4.16E-06,-6.65E-05,-2.08E-04,-8.75E-05,-5.95E-05,-5.73E-05,-5.38E-05
0.5808,8.10E-05,9.11E-05,9.23E-05,9.04E-05,8.50E-05,6.86E-05,0,1.48E-05,1.92E-05,1.82E-05,1.58E-05,8.58E-06,4.16E-06,-2.99E-04,2.41E-04,-2.87E-04,-8.03E-05,-3.07E-05,-2.86E-05,-5.61E-05
0.6048,8.09E-05,9.16E-05,9.33E-05,9.11E-05,8.52E-05,6.88E-05,1.16E-05,3.79E-06,1.92E-05,1.10E-05,9.58E-06,1.30E-05,4.82E-04,-3.08E-04,-3.99E-04,-7.07E-05,-1.35E-05,-3.13E-05,-4.76E-05,-3.63E-05
0.6288,8.15E-05,9.13E-05,9.33E-05,9.09E-05,8.55E-05,6.92E-05,2.31E-05,0,0,1.48E-05,1.28E-05,1.50E-05,4.16E-06,1.50E-04,-7.48E-05,-5.36E-17,3.38E-05,-3.53E-05,-6.40E-05,-4.48E-05
0.6528,8.20E-05,9.16E-05,9.33E-05,9.18E-05,8.58E-05,6.95E-05,1.18E-05,1.10E-05,1.56E-05,1.10E-05,1.94E-05,1.08E-05,-4.82E-04,2.33E-04,4.03E-04,-7.07E-05,1.82E-05,-2.25E-05,-1.96E-05,-4.53E-05
0.6768,8.21E-05,9.18E-05,9.40E-05,9.14E-05,8.64E-05,6.97E-05,1.36E-20,1.12E-05,1.94E-05,1.14E-05,6.39E-06,8.78E-06,-4.28E-04,8.31E-06,-2.45E-04,1.62E-04,8.38E-06,7.29E-06,-2.51E-05,-5.15E-05
0.7008,8.20E-05,9.22E-05,9.42E-05,9.23E-05,8.61E-05,6.99E-05,-8.78E-06,1.14E-05,3.79E-06,1.88E-05,0,6.59E-06,6.24E-05,-7.48E-05,-1.54E-04,-3.16E-04,-1.85E-05,2.46E-05,-4.06E-05,-7.56E-05
0.7248,8.17E-05,9.23E-05,9.42E-05,9.23E-05,8.64E-05,7.00E-05,2.99E-06,7.58E-06,1.20E-05,-3.79E-06,1.98E-05,0,4.28E-04,7.90E-05,2.54E-04,-1.54E-04,-5.36E-05,-1.43E-05,1.20E-06,-2.37E-05
0.7488,8.21E-05,9.25E-05,9.48E-05,9.22E-05,8.71E-05,6.99E-05,1.18E-05,1.52E-05,1.60E-05,1.14E-05,2.33E-05,2.39E-06,1.24E-04,1.62E-04,-2.49E-04,4.74E-04,-5.85E-05,-2.11E-05,-3.32E-05,3.58E-06
0.7728,8.23E-05,9.31E-05,9.50E-05,9.29E-05,8.76E-05,7.01E-05,8.96E-06,1.53E-05,1.66E-08,1.89E-05,3.42E-06,8.96E-06,-1.21E-04,-2.32E-04,-2.45E-04,-7.42E-05,-5.50E-05,-1.08E-05,-4.40E-05,-2.85E-05
0.7969,8.25E-05,9.33E-05,9.48E-05,9.31E-05,8.72E-05,7.03E-05,5.96E-06,3.97E-06,4.21E-06,7.77E-06,-6.76E-06,4.37E-06,-1.24E-04,-1.61E-04,3.36E-04,-4.73E-04,-1.99E-05,-4.05E-05,2.69E-05,-2.53E-05
0.8209,8.25E-05,9.33E-05,9.52E-05,9.33E-05,8.72E-05,7.03E-05,2.99E-06,7.58E-06,1.62E-05,-3.79E-06,1.36E-05,4.39E-06,6.29E-05,1.58E-04,-4.50E-06,-3.83E-06,3.28E-05,-4.88E-05,-1.17E-05,-3.88E-06
0.8449,8.27E-05,9.36E-05,9.55E-05,9.29E-05,8.79E-05,7.05E-05,8.98E-06,1.16E-05,3.99E-06,7.58E-06,1.36E-05,4.39E-06,4.12E-17,8.31E-06,-2.49E-04,3.99E-04,4.39E-05,-2.48E-05,-4.81E-05,6.42E-06
0.8689,8.30E-05,9.38E-05,9.54E-05,9.36E-05,8.79E-05,7.05E-05,2.99E-06,7.98E-06,4.19E-06,1.54E-05,0,4.59E-06,-3.74E-04,-3.24E-04,2.58E-04,8.73E-05,2.03E-05,-2.25E-05,9.82E-06,-2.41E-05
0.8929,8.28E-05,9.40E-05,9.57E-05,9.36E-05,8.79E-05,7.08E-05,-8.98E-06,-3.99E-06,1.64E-05,1.18E-05,6.78E-06,8.98E-06,-1.25E-04,-2.49E-04,-4.16E-06,-1.54E-04,-2.04E-05,-1.92E-05,-1.05E-05,-1.14E-05
0.9169,8.25E-05,9.36E-05,9.61E-05,9.42E-05,8.82E-05,7.10E-05,-2.99E-06,-3.99E-06,3.99E-06,7.98E-06,6.78E-06,2.20E-06,3.74E-04,2.49E-04,-3.41E-04,-4.07E-04,-4.14E-05,7.16E-06,-3.81E-05,-1.45E-05
0.9409,8.27E-05,9.38E-05,9.59E-05,9.40E-05,8.82E-05,7.09E-05,8.98E-06,7.98E-06,-1.95E-20,-7.78E-06,0,2.39E-06,3.74E-04,1.66E-04,2.66E-04,7.90E-05,-3.72E-05,2.65E-05,2.74E-05,-2.28E-05
0.9649,8.30E-05,9.40E-05,9.61E-05,9.38E-05,8.82E-05,7.11E-05,1.50E-05,3.99E-06,1.68E-05,1.18E-05,1.38E-05,2.20E-06,-6.21E-05,7.80E-05,1.75E-04,4.08E-04,-2.91E-05,2.30E-05,1.91E-05,1.52E-05
0.9889,8.34E-05,9.40E-05,9.67E-05,9.46E-05,8.89E-05,7.10E-05,6.00E-06,1.17E-05,8.40E-06,1.18E-05,1.38E-05,-9.94E-09,-3.73E-04,2.44E-04,-4.35E-04,-7.83E-05,6.12E-06,-5.69E-06,-3.83E-05,5.18E-08
1.013,8.33E-05,9.46E-05,9.65E-05,9.44E-05,8.89E-05,7.11E-05,-2.98E-06,1.57E-05,-4.17E-06,8.00E-06,-6.98E-06,2.38E-06,-6.18E-05,-1.61E-04,7.25E-07,-2.45E-04,4.85E-05,-1.71E-05,-3.90E-06,-2.92E-05
1.037,8.33E-05,9.48E-05,9.65E-05,9.50E-05,8.85E-05,7.11E-05,2.99E-06,3.99E-06,8.38E-06,0,3.39E-06,4.39E-06,1.24E-04,-2.44E-04,2.62E-04,-1.67E-04,5.36E-05,9.55E-07,1.10E-05,-2.26E-05
1.061,8.34E-05,9.48E-05,9.69E-05,9.44E-05,8.90E-05,7.13E-05,2.99E-06,3.99E-06,8.38E-06,0,1.74E-05,4.39E-06,-6.24E-05,1.70E-04,-1.75E-04,2.49E-04,1.12E-05,1.09E-05,-3.92E-05,-9.23E-06
1.085,8.34E-05,9.50E-05,9.69E-05,9.50E-05,8.94E-05,7.13E-05,0,1.22E-05,0,1.20E-05,0,4.59E-06,-1.25E-04,8.73E-05,9.15E-05,1.70E-04,-4.55E-05,-2.72E-05,-1.76E-05,-9.08E-07
1.109,8.34E-05,9.54E-05,9.69E-05,9.50E-05,8.90E-05,7.15E-05,-2.99E-06,8.18E-06,1.28E-05,8.18E-06,-6.98E-06,6.98E-06,0,-3.37E-04,2.66E-04,-1.62E-04,-5.63E-05,-6.58E-05,9.48E-06,5.54E-06
1.133,8.33E-05,9.54E-05,9.76E-05,9.54E-05,8.90E-05,7.16E-05,0,-3.99E-06,1.28E-05,4.19E-06,6.98E-06,2.39E-06,3.20E-04,-2.54E-04,-3.58E-04,-1.70E-04,-1.99E-05,-3.18E-05,-3.44E-05,-1.42E-05
1.157,8.34E-05,9.52E-05,9.76E-05,9.52E-05,8.94E-05,7.16E-05,1.24E-05,-3.99E-06,-4.39E-06,0,3.59E-06,2.20E-06,3.20E-04,1.66E-04,-1.79E-04,-4.16E-06,-2.01E-06,-5.13E-06,6.33E-06,-2.94E-06
1.181,8.39E-05,9.52E-05,9.73E-05,9.54E-05,8.92E-05,7.17E-05,1.54E-05,3.99E-06,4.19E-06,3.99E-06,3.59E-06,-2.39E-06,-1.95E-04,1.66E-04,2.70E-04,2.54E-04,-8.40E-06,1.17E-05,5.34E-05,1.05E-05
1.205,8.41E-05,9.54E-05,9.78E-05,9.54E-05,8.95E-05,7.15E-05,2.99E-06,3.99E-06,8.58E-06,1.22E-05,1.76E-05,-4.59E-06,-5.74E-04,-4.63E-17,-8.73E-05,-8.31E-05,2.17E-06,4.50E-05,-2.43E-05,-5.75E-06
1.229,8.40E-05,9.54E-05,9.78E-05,9.59E-05,9.00E-05,7.15E-05,-1.22E-05,3.99E-06,0,-1.12E-19,7.18E-06,2.39E-06,-1.91E-04,-4.63E-17,-1.79E-04,-2.54E-04,2.96E-05,1.05E-05,-4.86E-05,-8.90E-06
1.253,8.36E-05,9.55E-05,9.78E-05,9.54E-05,8.99E-05,7.16E-05,-6.19E-06,3.99E-06,0,-1.12E-19,-1.06E-05,4.59E-06,3.82E-04,4.16E-06,2.70E-04,1.70E-04,4.32E-05,-2.08E-05,1.21E-05,-9.54E-06
1.277,8.37E-05,9.55E-05,9.78E-05,9.59E-05,8.95E-05,7.17E-05,6.19E-06,4.19E-06,1.30E-05,8.18E-06,0,6.78E-06,2.58E-04,1.75E-04,9.15E-05,1.75E-04,1.26E-05,2.08E-05,-7.38E-06,4.87E-06
1.301,8.39E-05,9.57E-05,9.84E-05,9.57E-05,8.99E-05,7.20E-05,6.19E-06,1.24E-05,4.39E-06,8.38E-06,1.42E-05,6.98E-06,-1.29E-04,1.70E-04,-1.79E-04,5.89E-18,-2.57E-05,2.15E-05,-9.96E-06,-7.79E-06
1.325,8.40E-05,9.61E-05,9.80E-05,9.63E-05,9.02E-05,7.21E-05,0,1.24E-05,4.39E-06,8.18E-06,0,4.79E-06,-1.91E-04,-1.70E-04,1.79E-04,-1.75E-04,-2.61E-05,-2.93E-05,4.27E-05,-1.99E-05
1.349,8.39E-05,9.63E-05,9.86E-05,9.61E-05,8.99E-05,7.22E-05,-2.99E-06,4.19E-06,1.30E-05,0,-1.06E-05,0,2.58E-04,-1.70E-04,-1.83E-04,-2.58E-04,4.38E-07,-2.86E-05,-1.73E-05,-1.07E-05
1.373,8.39E-05,9.63E-05,9.86E-05,9.63E-05,8.97E-05,7.21E-05,1.24E-05,4.19E-06,-4.39E-06,-4.19E-06,1.06E-05,0,3.82E-04,-1.75E-04,-3.62E-04,1.75E-04,1.69E-05,-5.11E-06,-4.36E-05,-1.21E-06
1.397,8.44E-05,9.65E-05,9.84E-05,9.59E-05,9.04E-05,7.22E-05,1.54E-05,-4.19E-06,-4.39E-06,8.38E-06,1.06E-05,0,-1.95E-04,-1.75E-04,3.70E-04,2.62E-04,8.31E-06,1.11E-05,2.26E-05,2.35E-05
1.421,8.46E-05,9.61E-05,9.84E-05,9.67E-05,9.02E-05,7.21E-05,2.99E-06,-4.19E-06,1.34E-05,8.38E-06,-3.59E-06,-2.39E-06,-3.82E-04,2.62E-04,2.74E-04,-8.73E-05,-6.82E-07,2.38E-05,1.24E-06,7.81E-06
1.445,8.46E-05,9.63E-05,9.90E-05,9.63E-05,9.02E-05,7.21E-05,-2.99E-06,8.38E-06,8.78E-06,4.19E-06,7.38E-06,2.39E-06,-1.91E-04,1.75E-04,-3.74E-04,-2.62E-04,1.09E-06,6.28E-06,-2.99E-05,-3.19E-05
1.469,8.44E-05,9.65E-05,9.88E-05,9.69E-05,9.06E-05,7.22E-05,-6.19E-06,4.19E-06,-4.59E-06,-4.19E-06,0,2.39E-06,1.25E-04,-2.62E-04,4.16E-06,-8.73E-05,1.31E-05,-2.11E-05,4.56E-06,-4.27E-06
1.493,8.43E-05,9.65E-05,9.88E-05,9.61E-05,9.02E-05,7.22E-05,2.99E-06,-4.19E-06,8.98E-06,1.56E-19,-3.79E-06,-2.39E-06,1.95E-04,1.75E-04,9.56E-05,3.49E-04,3.62E-06,-6.11E-06,-6.47E-06,1.16E-05
1.517,8.46E-05,9.63E-05,9.92E-05,9.69E-05,9.04E-05,7.21E-05,3.19E-06,1.26E-05,8.30E-20,1.26E-05,1.82E-05,4.59E-06,-1.25E-04,4.37E-04,-2.79E-04,1.75E-04,-2.96E-05,2.50E-05,-1.67E-05,6.23E-06
1.541,8.44E-05,9.71E-05,9.88E-05,9.67E-05,9.11E-05,7.24E-05,-2.99E-06,1.68E-05,-4.39E-06,8.38E-06,3.79E-06,6.98E-06,-6.65E-05,-1.75E-04,3.74E-04,-1.75E-04,-3.75E-05,1.16E-05,3.99E-05,2.07E-06
1.565,8.44E-05,9.71E-05,9.90E-05,9.73E-05,9.06E-05,7.24E-05,0,4.19E-06,1.80E-05,4.19E-06,-1.08E-05,2.39E-06,3.24E-04,-1.70E-04,1.83E-04,-1.75E-04,-1.90E-05,-4.25E-06,8.47E-06,-1.53E-05
1.589,8.44E-05,9.73E-05,9.97E-05,9.69E-05,9.06E-05,7.25E-05,1.26E-05,8.58E-06,4.39E-06,0,1.08E-05,0,3.28E-04,-8.73E-05,-4.70E-04,-8.73E-05,6.90E-06,-1.90E-05,-5.56E-05,1.01E-05
1.613,8.50E-05,9.76E-05,9.92E-05,9.73E-05,9.11E-05,7.24E-05,1.58E-05,0,-4.59E-06,0,7.18E-06,0,-2.62E-04,-2.70E-04,9.56E-05,9.15E-05,2.52E-05,-5.64E-05,1.25E-05,1.21E-05
1.637,8.52E-05,9.73E-05,9.94E-05,9.69E-05,9.09E-05,7.25E-05,0,-4.39E-06,8.98E-06,4.39E-06,-3.59E-06,-2.39E-06,-4.61E-04,0,9.56E-05,1.75E-04,3.70E-05,-5.13E-05,5.63E-05,-1.40E-05
1.661,8.50E-05,9.73E-05,9.97E-05,9.76E-05,9.09E-05,7.23E-05,-6.39E-06,0,0,8.38E-06,7.38E-06,-4.79E-06,-1.33E-04,1.83E-04,-1.87E-04,-1.83E-04,3.02E-05,9.56E-06,-7.72E-08,-1.22E-05
1.685,8.49E-05,9.73E-05,9.94E-05,9.73E-05,9.13E-05,7.23E-05,-6.39E-06,4.39E-06,0,-4.39E-06,7.38E-06,2.39E-06,2.00E-04,0,2.83E-04,4.16E-06,4.78E-06,3.28E-05,7.09E-06,2.63E-05
1.709,8.47E-05,9.76E-05,9.97E-05,9.73E-05,9.13E-05,7.24E-05,3.19E-06,0,1.36E-05,8.58E-06,-7.38E-06,2.39E-06,2.66E-04,-9.15E-05,9.15E-05,1.83E-04,-2.10E-05,4.70E-05,3.82E-05,8.92E-05
1.733,8.50E-05,9.73E-05,1.00E-04,9.78E-05,9.09E-05,7.24E-05,6.39E-06,4.07E-20,4.39E-06,4.39E-06,3.59E-06,0,-1.33E-04,9.15E-05,-3.78E-04,4.16E-06,-4.09E-05,9.67E-05,4.22E-05,1.24E-04
1.757,8.50E-05,9.76E-05,9.99E-05,9.76E-05,9.14E-05,7.24E-05,-3.19E-06,4.39E-06,-4.59E-06,8.78E-06,1.48E-05,0,-1.84E-18,8.73E-05,1.95E-04,-9.15E-05,-5.78E-05,1.26E-04,3.91E-05,1.31E-04
1.781,8.49E-05,9.76E-05,9.99E-05,9.82E-05,9.16E-05,7.24E-05,6.39E-06,4.19E-06,1.38E-05,0,-1.10E-05,2.39E-06,3.33E-04,-4.16E-06,3.82E-04,-2.74E-04,-6.93E-05,1.23E-04,2.70E-05,9.97E-05
1.805,8.54E-05,9.78E-05,1.01E-04,9.76E-05,9.09E-05,7.25E-05,1.28E-05,4.19E-06,1.38E-05,-4.39E-06,-7.38E-06,2.39E-06,0,1.83E-04,-3.82E-04,1.79E-04,-7.27E-05,7.82E-05,3.85E-06,2.00E-05
1.829,8.55E-05,9.78E-05,1.01E-04,9.80E-05,9.13E-05,7.25E-05,6.39E-06,1.30E-05,-4.59E-06,8.58E-06,1.84E-05,0,-3.99E-04,2.74E-04,-1.91E-04,3.62E-04,-6.55E-05,-2.08E-05,-3.23E-05,-1.19E-04
1.853,8.57E-05,9.84E-05,1.00E-04,9.80E-05,9.18E-05,7.25E-05,-6.39E-06,1.74E-05,4.59E-06,1.30E-05,1.10E-05,0,-3.99E-04,-3.58E-04,2.87E-04,-1.79E-04,-4.53E-05,-1.84E-04,-8.34E-05,-3.28E-04
1.877,8.52E-05,9.86E-05,1.01E-04,9.86E-05,9.18E-05,7.25E-05,-1.28E-05,-4.19E-06,9.18E-06,0,-7.38E-06,6.98E-06,-7.65E-17,-7.19E-04,-9.56E-05,-8.11E-04,-9.52E-06,-4.24E-04,-1.52E-04,-6.19E-04
1.901,8.50E-05,9.82E-05,1.01E-04,9.80E-05,9.14E-05,7.29E-05,-6.39E-06,-1.72E-05,0,-2.59E-05,-1.48E-05,1.40E-05,2.66E-04,-5.40E-04,-3.82E-04,-0.001080912,4.44E-05,-7.50E-04,-2.39E-04,-0.001000223
